##Temp./蚓	DSC/(mW/mg)
	GFP
33,57889	-0,0854229259056416
33,82889	-0,116480925905642
34,07889	-0,127515925905642
34,32889	-0,130867925905642
34,57889	-0,131228925905642
34,82889	-0,127678925905642
35,07889	-0,121287925905642
35,32889	-0,113192925905642
35,57889	-0,104752925905642
35,82889	-0,0946759259056416
36,07889	-0,0837029259056416
36,32889	-0,0738129259056416
36,57889	-0,0636812259056416
36,82889	-0,0526100259056416
37,07889	-0,0426959259056416
37,32889	-0,0322059259056416
37,57889	-0,0237789259056416
37,82889	-0,0143649259056416
38,07889	-0,00616992590564164
38,32889	9,6007409435836E-4
38,57889	0,00912507409435835
38,82889	0,0146560740943584
39,07889	0,0205170740943584
39,32889	0,0259390740943584
39,57889	0,0298500740943584
39,82889	0,0345020740943584
40,07889	0,0367470740943584
40,32889	0,0387600740943583
40,57889	0,0412050740943584
40,82889	0,0423280740943583
41,07889	0,0425860740943584
41,32889	0,0429480740943584
41,57889	0,0425590740943584
41,82889	0,0416580740943584
42,07889	0,0403470740943584
42,32889	0,0388820740943584
42,57889	0,0367350740943584
42,82889	0,0347500740943584
43,07889	0,0325220740943584
43,32889	0,0300170740943584
43,57889	0,0271930740943584
43,82889	0,0258750740943584
44,07889	0,0235320740943584
44,32889	0,0217300740943584
44,57889	0,0196910740943584
44,82889	0,0180700740943584
45,07889	0,0165190740943584
45,32889	0,0153880740943584
45,57889	0,0131470740943584
45,82889	0,00840407409435835
46,07889	0,00347307409435835
46,32889	-6,5592590564164E-4
46,57889	-0,00454592590564164
46,82889	-0,00675992590564165
47,07889	-0,00867992590564164
47,32889	-0,0107119259056416
47,57889	-0,0106379259056416
47,82889	-0,0111229259056416
48,07889	-0,0113429259056416
48,32889	-0,0110879259056416
48,57889	-0,0109609259056416
48,82889	-0,0102339259056416
49,07889	-0,00938892590564164
49,32889	-0,00894992590564164
49,57889	-0,00828492590564164
49,82889	-0,00786992590564164
50,07889	-0,00661092590564164
50,32889	-0,00594392590564165
50,57889	-0,00519892590564164
50,82889	-0,00444292590564165
51,07889	-0,00395892590564165
51,32889	-0,00286392590564165
51,57889	-0,00230692590564164
51,82889	-0,00218792590564164
52,07889	-0,00134092590564164
52,32889	-6,61925905641646E-4
52,57889	-7,69925905641643E-4
52,82889	4,02074094358364E-4
53,07889	8,48074094358352E-4
53,32889	0,00102307409435835
53,57889	0,00122507409435836
53,82889	0,00171807409435836
54,07889	0,00261207409435835
54,32889	0,00237407409435836
54,57889	0,00272307409435835
54,82889	0,00349307409435836
55,07889	0,00372407409435836
55,32889	0,00390007409435836
55,57889	0,00372107409435835
55,82889	0,00415307409435836
56,07889	0,00403007409435836
56,32889	0,00458407409435836
56,57889	0,00511307409435836
56,82889	0,00490407409435836
57,07889	0,00522907409435835
57,32889	0,00552707409435835
57,57889	0,00597607409435836
57,82889	0,00584907409435836
58,07889	0,00624107409435836
58,32889	0,00714607409435836
58,57889	0,00702807409435835
58,82889	0,00742007409435835
59,07889	0,00742207409435836
59,32889	0,00771607409435836
59,57889	0,00785907409435836
59,82889	0,00836307409435835
60,07889	0,00906707409435836
60,32889	0,00961707409435836
60,57889	0,00995007409435836
60,82889	0,00964907409435836
61,07889	0,0101360740943584
61,32889	0,0100220740943584
61,57889	0,0114710740943584
61,82889	0,0118980740943584
62,07889	0,0122220740943584
62,32889	0,0119830740943584
62,57889	0,0123680740943584
62,82889	0,0127230740943584
63,07889	0,0130920740943584
63,32889	0,0133520740943584
63,57889	0,0143280740943584
63,82889	0,0142970740943584
64,07889	0,0149020740943584
64,32889	0,0147650740943584
64,57889	0,0150250740943584
64,82889	0,0154950740943584
65,07889	0,0157500740943584
65,32889	0,0163270740943584
65,57889	0,0163550740943584
65,82889	0,0172310740943584
66,07889	0,0171430740943583
66,32889	0,0172060740943584
66,57889	0,0179490740943584
66,82889	0,0183400740943584
67,07889	0,0188590740943584
67,32889	0,0193760740943584
67,57889	0,0191240740943584
67,82889	0,0203070740943584
68,07889	0,0201590740943584
68,32889	0,0205100740943584
68,57889	0,0206630740943584
68,82889	0,0206260740943583
69,07889	0,0219800740943584
69,32889	0,0216490740943584
69,57889	0,0227850740943584
69,82889	0,0225320740943584
70,07889	0,0231210740943584
70,32889	0,0235420740943584
70,57889	0,0236200740943584
70,82889	0,0242920740943584
71,07889	0,0244980740943583
71,32889	0,0248010740943584
71,57889	0,0252120740943584
71,82889	0,0256380740943584
72,07889	0,0259270740943584
72,32889	0,0266250740943584
72,57889	0,0268120740943584
72,82889	0,0269320740943584
73,07889	0,0271110740943584
73,32889	0,0275370740943584
73,57889	0,0282700740943584
73,82889	0,0285810740943584
74,07889	0,0296240740943584
74,32889	0,0298480740943584
74,57889	0,0307360740943584
74,82889	0,0302650740943584
75,07889	0,0308870740943584
75,32889	0,0310620740943584
75,57889	0,0314270740943584
75,82889	0,0318750740943584
76,07889	0,0319520740943584
76,32889	0,0336400740943584
76,57889	0,0331240740943584
76,82889	0,0339850740943584
77,07889	0,0340860740943584
77,32889	0,0341760740943584
77,57889	0,0347140740943584
77,82889	0,0357810740943584
78,07889	0,0362640740943584
78,32889	0,0367200740943584
78,57889	0,0369920740943584
78,82889	0,0375950740943583
79,07889	0,0380910740943584
79,32889	0,0387210740943583
79,57889	0,0391660740943584
79,82889	0,0394840740943583
80,07889	0,0401280740943584
80,32889	0,0404180740943584
80,57889	0,0407090740943584
80,82889	0,0417190740943584
81,07889	0,0424000740943584
81,32889	0,0427100740943584
81,57889	0,0434000740943584
81,82889	0,0440280740943584
82,07889	0,0451340740943584
82,32889	0,0452340740943584
82,57889	0,0458440740943584
82,82889	0,0467340740943584
83,07889	0,0472640740943584
83,32889	0,0483540740943584
83,57889	0,0490240740943584
83,82889	0,0498940740943584
84,07889	0,0499540740943584
84,32889	0,0509640740943584
84,57889	0,0514540740943584
84,82889	0,0523440740943584
85,07889	0,0533340740943584
85,32889	0,0539340740943584
85,57889	0,0549640740943584
85,82889	0,0556140740943584
86,07889	0,0564540740943584
86,32889	0,0565940740943584
86,57889	0,0575340740943584
86,82889	0,0580940740943584
87,07889	0,0585340740943584
87,32889	0,0595840740943584
87,57889	0,0603540740943584
87,82889	0,0605340740943584
88,07889	0,0609440740943584
88,32889	0,0616240740943584
88,57889	0,0617040740943584
88,82889	0,0624840740943584
89,07889	0,0631640740943584
89,32889	0,0634740740943584
89,57889	0,0633740740943584
89,82889	0,0643740740943584
90,07889	0,0645140740943584
90,32889	0,0654140740943584
90,57889	0,0649540740943584
90,82889	0,0655140740943584
91,07889	0,0655640740943584
91,32889	0,0658740740943584
91,57889	0,0664040740943584
91,82889	0,0660740740943584
92,07889	0,0664740740943584
92,32889	0,0668340740943584
92,57889	0,0672340740943584
92,82889	0,0673540740943584
93,07889	0,0677640740943584
93,32889	0,0677140740943584
93,57889	0,0681440740943584
93,82889	0,0687240740943584
94,07889	0,0687340740943584
94,32889	0,0692440740943584
94,57889	0,0693540740943584
94,82889	0,0692840740943584
95,07889	0,0697840740943584
95,32889	0,0700440740943584
95,57889	0,0703640740943584
95,82889	0,0708040740943583
96,07889	0,0716140740943584
96,32889	0,0712540740943584
96,57889	0,0716940740943584
96,82889	0,0719440740943584
97,07889	0,0724440740943584
97,32889	0,0728640740943584
97,57889	0,0728340740943584
97,82889	0,0736340740943583
98,07889	0,0737240740943584
98,32889	0,0746240740943584
98,57889	0,0747240740943584
98,82889	0,0746540740943584
99,07889	0,0751140740943584
99,32889	0,0757440740943583
99,57889	0,0764940740943584
99,82889	0,0770340740943584
100,07889	0,0768640740943584
100,32889	0,0772740740943584
100,57889	0,0779240740943584
100,82889	0,0782140740943583
101,07889	0,0785240740943584
101,32889	0,0786140740943584
101,57889	0,0797940740943583
101,82889	0,0797840740943584
102,07889	0,0797940740943583
102,32889	0,0800940740943584
102,57889	0,0803940740943584
102,82889	0,0810240740943584
103,07889	0,0814740740943584
103,32889	0,0813540740943584
103,57889	0,0820340740943584
103,82889	0,0820540740943584
104,07889	0,0828040740943584
104,32889	0,0831740740943584
104,57889	0,0833240740943584
104,82889	0,0842240740943584
105,07889	0,0845640740943584
105,32889	0,0849840740943583
105,57889	0,0853040740943584
105,82889	0,0856640740943584
106,07889	0,0859140740943584
106,32889	0,0870240740943584
106,57889	0,0871740740943583
106,82889	0,0877140740943584
107,07889	0,0873640740943584
107,32889	0,0880040740943584
107,57889	0,0889140740943584
107,82889	0,0893240740943584
108,07889	0,0901740740943583
108,32889	0,0897540740943584
108,57889	0,0908040740943584
108,82889	0,0910040740943583
109,07889	0,0917140740943584
109,32889	0,0922440740943584
109,57889	0,0927840740943583
109,82889	0,0933840740943584
110,07889	0,0940440740943584
110,32889	0,0939940740943584
110,57889	0,0946140740943583
110,82889	0,0951440740943584
111,07889	0,0951540740943584
111,32889	0,0959640740943584
111,57889	0,0965940740943584
111,82889	0,0971840740943584
112,07889	0,0974740740943583
112,32889	0,0978040740943583
112,57889	0,0980940740943584
112,82889	0,0983540740943584
113,07889	0,0989040740943584
113,32889	0,0997140740943584
113,57889	0,0999040740943584
113,82889	0,0998740740943584
114,07889	0,100944074094358
114,32889	0,101054074094358
114,57889	0,101704074094358
114,82889	0,102064074094358
115,07889	0,102674074094358
115,32889	0,102764074094358
115,57889	0,103534074094358
115,82889	0,103754074094358
116,07889	0,103884074094358
116,32889	0,104704074094358
116,57889	0,105124074094358
116,82889	0,105984074094358
117,07889	0,106274074094358
117,32889	0,106764074094358
117,57889	0,107124074094358
117,82889	0,107984074094358
118,07889	0,108504074094358
118,32889	0,108644074094358
118,57889	0,109324074094358
118,82889	0,109204074094358
119,07889	0,110014074094358
119,32889	0,110284074094358
119,57889	0,110534074094358
119,82889	0,111644074094358
120,07889	0,112084074094358
120,32889	0,112934074094358
120,57889	0,113234074094358
120,82889	0,113414074094358
121,07889	0,114144074094358
121,32889	0,114694074094358
121,57889	0,114874074094358
121,82889	0,115994074094358
122,07889	0,116044074094358
122,32889	0,116324074094358
122,57889	0,117604074094358
122,82889	0,118084074094358
123,07889	0,118444074094358
123,32889	0,118474074094358
123,57889	0,119584074094358
123,82889	0,120064074094358
124,07889	0,120564074094358
124,32889	0,121154074094358
124,57889	0,121894074094358
124,82889	0,122414074094358
125,07889	0,123034074094358
125,32889	0,123894074094358
125,57889	0,124344074094358
125,82889	0,125354074094358
126,07889	0,125814074094358
126,32889	0,126044074094358
126,57889	0,126804074094358
126,82889	0,127764074094358
127,07889	0,128734074094358
127,32889	0,129034074094358
127,57889	0,129434074094358
127,82889	0,130254074094358
128,07889	0,131124074094358
128,32889	0,131424074094358
128,57889	0,132924074094358
128,82889	0,132934074094358
129,07889	0,133814074094358
129,32889	0,134384074094358
129,57889	0,135204074094358
129,82889	0,136214074094358
130,07889	0,136354074094358
130,32889	0,137724074094358
130,57889	0,138854074094358
130,82889	0,139444074094358
131,07889	0,139994074094358
131,32889	0,140394074094358
131,57889	0,141704074094358
131,82889	0,142874074094358
132,07889	0,143164074094358
132,32889	0,144074074094358
132,57889	0,144474074094358
132,82889	0,145994074094358
133,07889	0,146734074094358
133,32889	0,147144074094358
133,57889	0,148124074094358
133,82889	0,149194074094358
134,07889	0,150374074094358
134,32889	0,151004074094358
134,57889	0,151764074094358
134,82889	0,153764074094358
135,07889	0,153954074094358
135,32889	0,154954074094358
135,57889	0,156194074094358
135,82889	0,156804074094358
136,07889	0,158394074094358
136,32889	0,159174074094358
136,57889	0,160394074094358
136,82889	0,161604074094358
137,07889	0,162414074094358
137,32889	0,164244074094358
137,57889	0,165214074094358
137,82889	0,166344074094358
138,07889	0,167464074094358
138,32889	0,168924074094358
138,57889	0,170114074094358
138,82889	0,171694074094358
139,07889	0,173334074094358
139,32889	0,174484074094358
139,57889	0,175414074094358
139,82889	0,176234074094358
140,07889	0,178804074094358
140,32889	0,179444074094358
140,57889	0,181344074094358
140,82889	0,182504074094358
141,07889	0,184234074094358
141,32889	0,185524074094358
141,57889	0,186954074094358
141,82889	0,188514074094358
142,07889	0,189604074094358
142,32889	0,191304074094358
142,57889	0,192564074094358
142,82889	0,193654074094358
143,07889	0,194964074094358
143,32889	0,196344074094358
143,57889	0,197614074094358
143,82889	0,198854074094358
144,07889	0,200724074094358
144,32889	0,201844074094358
144,57889	0,202814074094358
144,82889	0,204354074094358
145,07889	0,205774074094358
145,32889	0,206794074094358
145,57889	0,208814074094358
145,82889	0,209884074094358
146,07889	0,211304074094358
146,32889	0,213344074094358
146,57889	0,214804074094358
146,82889	0,216764074094358
147,07889	0,218164074094358
147,32889	0,219134074094358
147,57889	0,220964074094358
147,82889	0,222554074094358
148,07889	0,223914074094358
148,32889	0,224994074094358
148,57889	0,226244074094358
148,82889	0,227754074094358
149,07889	0,229194074094358
149,32889	0,230534074094358
149,57889	0,231284074094358
149,82889	0,231954074094358
150,07889	0,232584074094358
150,32889	0,234104074094358
150,57889	0,234594074094358
150,82889	0,234914074094358
151,07889	0,235574074094358
151,32889	0,235764074094358
151,57889	0,235374074094358
151,82889	0,234564074094358
152,07889	0,233754074094358
152,32889	0,232364074094358
152,57889	0,231194074094358
152,82889	0,229374074094358
153,07889	0,226974074094358
153,32889	0,224894074094358
153,57889	0,222994074094358
153,82889	0,219954074094358
154,07889	0,217594074094358
154,32889	0,213254074094358
154,57889	0,209834074094358
154,82889	0,206804074094358
155,07889	0,204124074094358
155,32889	0,199284074094358
155,57889	0,195984074094358
155,82889	0,192824074094358
156,07889	0,187524074094358
156,32889	0,181834074094358
156,57889	0,176704074094358
156,82889	0,171384074094358
157,07889	0,165964074094358
157,32889	0,161554074094358
157,57889	0,157344074094358
157,82889	0,153914074094358
158,07889	0,150164074094358
158,32889	0,147854074094358
158,57889	0,145254074094358
158,82889	0,142764074094358
159,07889	0,140434074094358
159,32889	0,138024074094358
159,57889	0,136244074094358
159,82889	0,135194074094358
160,07889	0,133694074094358
160,32889	0,132834074094358
160,57889	0,132174074094358
160,82889	0,131394074094358
161,07889	0,130494074094358
161,32889	0,130204074094358
161,57889	0,129294074094358
161,82889	0,128754074094358
162,07889	0,128654074094358
162,32889	0,128434074094358
162,57889	0,127944074094358
162,82889	0,127334074094358
163,07889	0,127254074094358
163,32889	0,126874074094358
163,57889	0,127164074094358
163,82889	0,126884074094358
164,07889	0,126914074094358
164,32889	0,126624074094358
164,57889	0,126604074094358
164,82889	0,126664074094358
165,07889	0,126254074094358
165,32889	0,126444074094358
165,57889	0,125934074094358
165,82889	0,126034074094358
166,07889	0,126004074094358
166,32889	0,125844074094358
166,57889	0,125894074094358
166,82889	0,125694074094358
167,07889	0,125654074094358
167,32889	0,125484074094358
167,57889	0,125784074094358
167,82889	0,125774074094358
168,07889	0,126104074094358
168,32889	0,125864074094358
168,57889	0,126014074094358
168,82889	0,126434074094358
169,07889	0,125984074094358
169,32889	0,126404074094358
169,57889	0,126954074094358
169,82889	0,126524074094358
170,07889	0,126674074094358
170,32889	0,127284074094358
170,57889	0,127034074094358
170,82889	0,127554074094358
171,07889	0,127664074094358
171,32889	0,128044074094358
171,57889	0,128004074094358
171,82889	0,127914074094358
172,07889	0,128544074094358
172,32889	0,128604074094358
172,57889	0,128724074094358
172,82889	0,128564074094358
173,07889	0,129344074094358
173,32889	0,129224074094358
173,57889	0,129164074094358
173,82889	0,130044074094358
174,07889	0,130404074094358
174,32889	0,130234074094358
174,57889	0,130274074094358
174,82889	0,130384074094358
175,07889	0,130934074094358
175,32889	0,130704074094358
175,57889	0,131104074094358
175,82889	0,131354074094358
176,07889	0,131424074094358
176,32889	0,131584074094358
176,57889	0,131444074094358
176,82889	0,131654074094358
177,07889	0,131954074094358
177,32889	0,132484074094358
177,57889	0,132704074094358
177,82889	0,132544074094358
178,07889	0,133104074094358
178,32889	0,133064074094358
178,57889	0,133194074094358
178,82889	0,133424074094358
179,07889	0,133654074094358
179,32889	0,133934074094358
179,57889	0,133974074094358
179,82889	0,134944074094358
180,07889	0,134634074094358
180,32889	0,134614074094358
180,57889	0,134994074094358
180,82889	0,135814074094358
181,07889	0,136044074094358
181,32889	0,135834074094358
181,57889	0,135764074094358
181,82889	0,135974074094358
182,07889	0,136314074094358
182,32889	0,136324074094358
182,57889	0,136704074094358
182,82889	0,137124074094358
183,07889	0,137004074094358
183,32889	0,136984074094358
183,57889	0,137564074094358
183,82889	0,137744074094358
184,07889	0,137844074094358
184,32889	0,138354074094358
184,57889	0,138104074094358
184,82889	0,138544074094358
185,07889	0,138954074094358
185,32889	0,138894074094358
185,57889	0,139084074094358
185,82889	0,139264074094358
186,07889	0,139404074094358
186,32889	0,139254074094358
186,57889	0,139854074094358
186,82889	0,140144074094358
187,07889	0,140434074094358
187,32889	0,140614074094358
187,57889	0,140474074094358
187,82889	0,140984074094358
188,07889	0,141074074094358
188,32889	0,141034074094358
188,57889	0,141754074094358
188,82889	0,141994074094358
189,07889	0,142194074094358
189,32889	0,142174074094358
189,57889	0,142284074094358
189,82889	0,142514074094358
190,07889	0,142164074094358
190,32889	0,143024074094358
190,57889	0,143194074094358
190,82889	0,143404074094358
191,07889	0,143714074094358
191,32889	0,144004074094358
191,57889	0,143844074094358
191,82889	0,144234074094358
192,07889	0,144094074094358
192,32889	0,144384074094358
192,57889	0,144774074094358
192,82889	0,145024074094358
193,07889	0,144884074094358
193,32889	0,145224074094358
193,57889	0,145554074094358
193,82889	0,145424074094358
194,07889	0,145504074094358
194,32889	0,146074074094358
194,57889	0,146314074094358
194,82889	0,146324074094358
195,07889	0,146444074094358
195,32889	0,146544074094358
195,57889	0,146484074094358
195,82889	0,146244074094358
196,07889	0,146154074094358
196,32889	0,146744074094358
196,57889	0,147184074094358
196,82889	0,146784074094358
197,07889	0,146914074094358
197,32889	0,147374074094358
197,57889	0,147674074094358
197,82889	0,147604074094358
198,07889	0,147434074094358
198,32889	0,147604074094358
198,57889	0,147444074094358
198,82889	0,147684074094358
199,07889	0,145244074094358
199,32889	0,147024074094358
199,57889	0,147064074094358
199,82889	0,147424074094358
200,07889	0,147744074094358
200,32889	0,148264074094358
200,57889	0,147994074094358
200,82889	0,148304074094358
201,07889	0,149044074094358
201,32889	0,148854074094358
201,57889	0,148994074094358
201,82889	0,148904074094358
202,07889	0,149464074094358
202,32889	0,149734074094358
202,57889	0,149554074094358
202,82889	0,149904074094358
203,07889	0,149984074094358
203,32889	0,150314074094358
203,57889	0,150314074094358
203,82889	0,150864074094358
204,07889	0,150544074094358
204,32889	0,151254074094358
204,57889	0,150874074094358
204,82889	0,151474074094358
205,07889	0,151754074094358
205,32889	0,151954074094358
205,57889	0,151994074094358
205,82889	0,152254074094358
206,07889	0,152524074094358
206,32889	0,152824074094358
206,57889	0,152804074094358
206,82889	0,152864074094358
207,07889	0,153444074094358
207,32889	0,153654074094358
207,57889	0,153664074094358
207,82889	0,153824074094358
208,07889	0,153754074094358
208,32889	0,154124074094358
208,57889	0,154324074094358
208,82889	0,154684074094358
209,07889	0,154344074094358
209,32889	0,154984074094358
209,57889	0,155134074094358
209,82889	0,155924074094358
210,07889	0,155344074094358
210,32889	0,156104074094358
210,57889	0,156024074094358
210,82889	0,155944074094358
211,07889	0,156304074094358
211,32889	0,156624074094358
211,57889	0,156834074094358
211,82889	0,156934074094358
212,07889	0,157204074094358
212,32889	0,157264074094358
212,57889	0,157884074094358
212,82889	0,158404074094358
213,07889	0,157654074094358
213,32889	0,158394074094358
213,57889	0,158414074094358
213,82889	0,158304074094358
214,07889	0,159034074094358
214,32889	0,158894074094358
214,57889	0,159504074094358
214,82889	0,159684074094358
215,07889	0,159874074094358
215,32889	0,159814074094358
215,57889	0,159964074094358
215,82889	0,160224074094358
216,07889	0,160284074094358
216,32889	0,160464074094358
216,57889	0,160554074094358
216,82889	0,160824074094358
217,07889	0,161454074094358
217,32889	0,161394074094358
217,57889	0,161554074094358
217,82889	0,161914074094358
218,07889	0,162044074094358
218,32889	0,162244074094358
218,57889	0,162714074094358
218,82889	0,162994074094358
219,07889	0,162754074094358
219,32889	0,163034074094358
219,57889	0,163274074094358
219,82889	0,163424074094358
220,07889	0,163494074094358
220,32889	0,163644074094358
220,57889	0,163994074094358
220,82889	0,164514074094358
221,07889	0,164484074094358
221,32889	0,164314074094358
221,57889	0,164434074094358
221,82889	0,165334074094358
222,07889	0,164984074094358
222,32889	0,165524074094358
222,57889	0,165424074094358
222,82889	0,165814074094358
223,07889	0,166124074094358
223,32889	0,166184074094358
223,57889	0,166474074094358
223,82889	0,166524074094358
224,07889	0,166514074094358
224,32889	0,166724074094358
224,57889	0,167054074094358
224,82889	0,166974074094358
225,07889	0,167894074094358
225,32889	0,167494074094358
225,57889	0,168304074094358
225,82889	0,168374074094358
226,07889	0,168374074094358
226,32889	0,168424074094358
226,57889	0,168354074094358
226,82889	0,168814074094358
227,07889	0,169024074094358
227,32889	0,169164074094358
227,57889	0,170094074094358
227,82889	0,169504074094358
228,07889	0,169844074094358
228,32889	0,170034074094358
228,57889	0,170434074094358
228,82889	0,170044074094358
229,07889	0,170464074094358
229,32889	0,170504074094358
229,57889	0,171014074094358
229,82889	0,170954074094358
230,07889	0,171274074094358
230,32889	0,171924074094358
230,57889	0,171454074094358
230,82889	0,171744074094358
231,07889	0,172134074094358
231,32889	0,171924074094358
231,57889	0,172384074094358
231,82889	0,172444074094358
232,07889	0,172594074094358
232,32889	0,173304074094358
232,57889	0,173154074094358
232,82889	0,173464074094358
233,07889	0,173874074094358
233,32889	0,173654074094358
233,57889	0,173594074094358
233,82889	0,174344074094358
234,07889	0,174294074094358
234,32889	0,174554074094358
234,57889	0,175034074094358
234,82889	0,175154074094358
235,07889	0,175434074094358
235,32889	0,175384074094358
235,57889	0,176204074094358
235,82889	0,176604074094358
236,07889	0,176104074094358
236,32889	0,176364074094358
236,57889	0,177324074094358
236,82889	0,176784074094358
237,07889	0,177764074094358
237,32889	0,177864074094358
237,57889	0,177324074094358
237,82889	0,177914074094358
238,07889	0,177584074094358
238,32889	0,178394074094358
238,57889	0,178354074094358
238,82889	0,178544074094358
239,07889	0,178584074094358
239,32889	0,179104074094358
239,57889	0,178734074094358
239,82889	0,179554074094358
240,07889	0,179404074094358
240,32889	0,179584074094358
240,57889	0,179654074094358
240,82889	0,179894074094358
241,07889	0,180124074094358
241,32889	0,180674074094358
241,57889	0,180644074094358
241,82889	0,180714074094358
242,07889	0,180624074094358
242,32889	0,181454074094358
242,57889	0,181104074094358
242,82889	0,181084074094358
243,07889	0,181584074094358
243,32889	0,181644074094358
243,57889	0,182274074094358
243,82889	0,182454074094358
244,07889	0,182644074094358
244,32889	0,182894074094358
244,57889	0,183084074094358
244,82889	0,182834074094358
245,07889	0,182984074094358
245,32889	0,182994074094358
245,57889	0,183284074094358
245,82889	0,183064074094358
246,07889	0,183374074094358
246,32889	0,183704074094358
246,57889	0,183734074094358
246,82889	0,183574074094358
247,07889	0,184024074094358
247,32889	0,184184074094358
247,57889	0,183744074094358
247,82889	0,184534074094358
248,07889	0,184364074094358
248,32889	0,184624074094358
248,57889	0,184394074094358
248,82889	0,185244074094358
249,07889	0,184724074094358
249,32889	0,185094074094358
249,57889	0,185114074094358
249,82889	0,185714074094358
250,07889	0,184964074094358
250,32889	0,185974074094358
250,57889	0,185724074094358
250,82889	0,185994074094358
251,07889	0,186184074094358
251,32889	0,186214074094358
251,57889	0,186524074094358
251,82889	0,186994074094358
252,07889	0,186664074094358
252,32889	0,187294074094358
252,57889	0,187684074094358
252,82889	0,187204074094358
253,07889	0,187744074094358
253,32889	0,187804074094358
253,57889	0,187724074094358
253,82889	0,188064074094358
254,07889	0,188424074094358
254,32889	0,188074074094358
254,57889	0,188394074094358
254,82889	0,188364074094358
255,07889	0,189474074094358
255,32889	0,189084074094358
255,57889	0,189424074094358
255,82889	0,189694074094358
256,07889	0,189914074094358
256,32889	0,189184074094358
256,57889	0,189824074094358
256,82889	0,190324074094358
257,07889	0,190774074094358
257,32889	0,190614074094358
257,57889	0,190634074094358
257,82889	0,190944074094358
258,07889	0,190324074094358
258,32889	0,190544074094358
258,57889	0,191684074094358
258,82889	0,191314074094358
259,07889	0,191724074094358
259,32889	0,191294074094358
259,57889	0,191624074094358
259,82889	0,192164074094358
260,07889	0,192064074094358
260,32889	0,192064074094358
260,57889	0,192324074094358
260,82889	0,192574074094358
261,07889	0,192954074094358
261,32889	0,192924074094358
261,57889	0,193334074094358
261,82889	0,193234074094358
262,07889	0,193674074094358
262,32889	0,193414074094358
262,57889	0,193754074094358
262,82889	0,193724074094358
263,07889	0,193924074094358
263,32889	0,194644074094358
263,57889	0,193894074094358
263,82889	0,194214074094358
264,07889	0,194854074094358
264,32889	0,194924074094358
264,57889	0,195074074094358
264,82889	0,195384074094358
265,07889	0,195434074094358
265,32889	0,195304074094358
265,57889	0,195134074094358
265,82889	0,195994074094358
266,07889	0,195624074094358
266,32889	0,196364074094358
266,57889	0,196294074094358
266,82889	0,197124074094358
267,07889	0,197144074094358
267,32889	0,197184074094358
267,57889	0,197274074094358
267,82889	0,197684074094358
268,07889	0,199744074094358
268,32889	0,199184074094358
268,57889	0,198914074094358
268,82889	0,198654074094358
269,07889	0,197774074094358
269,32889	0,198584074094358
269,57889	0,198354074094358
269,82889	0,198234074094358
270,07889	0,198424074094358
270,32889	0,198434074094358
270,57889	0,199414074094358
270,82889	0,199134074094358
271,07889	0,198974074094358
271,32889	0,199184074094358
271,57889	0,199424074094358
271,82889	0,199264074094358
272,07889	0,199674074094358
272,32889	0,199664074094358
272,57889	0,199704074094358
272,82889	0,199774074094358
273,07889	0,199884074094358
273,32889	0,200274074094358
273,57889	0,200484074094358
273,82889	0,201094074094358
274,07889	0,201054074094358
274,32889	0,200774074094358
274,57889	0,200554074094358
274,82889	0,201034074094358
275,07889	0,201414074094358
275,32889	0,201384074094358
275,57889	0,201814074094358
275,82889	0,201924074094358
276,07889	0,201614074094358
276,32889	0,202304074094358
276,57889	0,202084074094358
276,82889	0,202544074094358
277,07889	0,202424074094358
277,32889	0,202144074094358
277,57889	0,202564074094358
277,82889	0,203224074094358
278,07889	0,203504074094358
278,32889	0,203174074094358
278,57889	0,203824074094358
278,82889	0,203754074094358
279,07889	0,203754074094358
279,32889	0,204084074094358
279,57889	0,203934074094358
279,82889	0,203934074094358
280,07889	0,204484074094358
280,32889	0,204514074094358
280,57889	0,204894074094358
280,82889	0,205424074094358
281,07889	0,205344074094358
281,32889	0,205604074094358
281,57889	0,205214074094358
281,82889	0,205374074094358
282,07889	0,205804074094358
282,32889	0,205834074094358
282,57889	0,206224074094358
282,82889	0,206394074094358
283,07889	0,206324074094358
283,32889	0,206794074094358
283,57889	0,206734074094358
283,82889	0,206734074094358
284,07889	0,206774074094358
284,32889	0,207084074094358
284,57889	0,207334074094358
284,82889	0,207774074094358
285,07889	0,207894074094358
285,32889	0,207704074094358
285,57889	0,208424074094358
285,82889	0,207974074094358
286,07889	0,207984074094358
286,32889	0,208654074094358
286,57889	0,208254074094358
286,82889	0,208224074094358
287,07889	0,208964074094358
287,32889	0,209034074094358
287,57889	0,208814074094358
287,82889	0,208914074094358
288,07889	0,209214074094358
288,32889	0,209524074094358
288,57889	0,209294074094358
288,82889	0,209624074094358
289,07889	0,210164074094358
289,32889	0,210604074094358
289,57889	0,210384074094358
289,82889	0,210494074094358
290,07889	0,210514074094358
290,32889	0,211054074094358
290,57889	0,211534074094358
290,82889	0,211224074094358
291,07889	0,210684074094358
291,32889	0,211264074094358
291,57889	0,211224074094358
291,82889	0,211124074094358
292,07889	0,211804074094358
292,32889	0,212234074094358
292,57889	0,212194074094358
292,82889	0,212114074094358
293,07889	0,212364074094358
293,32889	0,212564074094358
293,57889	0,212814074094358
293,82889	0,212604074094358
294,07889	0,212404074094358
294,32889	0,213024074094358
294,57889	0,213774074094358
294,82889	0,213654074094358
295,07889	0,213804074094358
295,32889	0,214104074094358
295,57889	0,213604074094358
295,82889	0,213744074094358
296,07889	0,213464074094358
296,32889	0,214424074094358
296,57889	0,214564074094358
296,82889	0,214604074094358
297,07889	0,214144074094358
297,32889	0,214694074094358
297,57889	0,214354074094358
297,82889	0,214874074094358
298,07889	0,214334074094358
298,32889	0,214344074094358
298,57889	0,215384074094358
298,82889	0,214804074094358
299,07889	0,215194074094358
299,32889	0,215504074094358
299,57889	0,215384074094358
299,82889	0,215834074094358
300,07889	0,216124074094358
300,32889	0,215434074094358
300,57889	0,215974074094358
300,82889	0,216304074094358
301,07889	0,216484074094358
301,32889	0,216694074094358
301,57889	0,216584074094358
301,82889	0,216714074094358
302,07889	0,217364074094358
302,32889	0,217044074094358
302,57889	0,217244074094358
302,82889	0,217414074094358
303,07889	0,217574074094358
303,32889	0,217694074094358
303,57889	0,218284074094358
303,82889	0,218144074094358
304,07889	0,218064074094358
304,32889	0,219044074094358
304,57889	0,218344074094358
304,82889	0,218684074094358
305,07889	0,218864074094358
305,32889	0,219164074094358
305,57889	0,219184074094358
305,82889	0,219294074094358
306,07889	0,219684074094358
306,32889	0,219594074094358
306,57889	0,220034074094358
306,82889	0,219904074094358
307,07889	0,220304074094358
307,32889	0,220194074094358
307,57889	0,220554074094358
307,82889	0,220324074094358
308,07889	0,220934074094358
308,32889	0,221134074094358
308,57889	0,221194074094358
308,82889	0,221024074094358
309,07889	0,221704074094358
309,32889	0,221424074094358
309,57889	0,221154074094358
309,82889	0,221654074094358
310,07889	0,221934074094358
310,32889	0,222044074094358
310,57889	0,222094074094358
310,82889	0,222594074094358
311,07889	0,222474074094358
311,32889	0,222394074094358
311,57889	0,222614074094358
311,82889	0,223044074094358
312,07889	0,223074074094358
312,32889	0,223294074094358
312,57889	0,223734074094358
312,82889	0,223514074094358
313,07889	0,223774074094358
313,32889	0,223834074094358
313,57889	0,223754074094358
313,82889	0,224234074094358
314,07889	0,224544074094358
314,32889	0,224124074094358
314,57889	0,224194074094358
314,82889	0,224354074094358
315,07889	0,224594074094358
315,32889	0,224934074094358
315,57889	0,225044074094358
315,82889	0,225234074094358
316,07889	0,225264074094358
316,32889	0,225554074094358
316,57889	0,225574074094358
316,82889	0,226234074094358
317,07889	0,226034074094358
317,32889	0,226374074094358
317,57889	0,226644074094358
317,82889	0,226924074094358
318,07889	0,226674074094358
318,32889	0,226814074094358
318,57889	0,226914074094358
318,82889	0,227424074094358
319,07889	0,227154074094358
319,32889	0,227814074094358
319,57889	0,227414074094358
319,82889	0,227664074094358
320,07889	0,227604074094358
320,32889	0,227894074094358
320,57889	0,228124074094358
320,82889	0,228214074094358
321,07889	0,228544074094358
321,32889	0,228974074094358
321,57889	0,229104074094358
321,82889	0,228964074094358
322,07889	0,228724074094358
322,32889	0,228864074094358
322,57889	0,228754074094358
322,82889	0,229614074094358
323,07889	0,229494074094358
323,32889	0,229604074094358
323,57889	0,229904074094358
323,82889	0,229684074094358
324,07889	0,229904074094358
324,32889	0,230104074094358
324,57889	0,230204074094358
324,82889	0,230514074094358
325,07889	0,230714074094358
325,32889	0,230684074094358
325,57889	0,230784074094358
325,82889	0,230764074094358
326,07889	0,231274074094358
326,32889	0,231094074094358
326,57889	0,231024074094358
326,82889	0,231174074094358
327,07889	0,230984074094358
327,32889	0,231684074094358
327,57889	0,231614074094358
327,82889	0,232014074094358
328,07889	0,232044074094358
328,32889	0,231694074094358
328,57889	0,232564074094358
328,82889	0,232534074094358
329,07889	0,232474074094358
329,32889	0,232864074094358
329,57889	0,232934074094358
329,82889	0,232884074094358
330,07889	0,233614074094358
330,32889	0,232704074094358
330,57889	0,233724074094358
330,82889	0,233644074094358
331,07889	0,233864074094358
331,32889	0,234554074094358
331,57889	0,234394074094358
331,82889	0,234424074094358
332,07889	0,234994074094358
332,32889	0,234244074094358
332,57889	0,234514074094358
332,82889	0,234634074094358
333,07889	0,235064074094358
333,32889	0,235464074094358
333,57889	0,235154074094358
333,82889	0,235874074094358
334,07889	0,235284074094358
334,32889	0,235894074094358
334,57889	0,236494074094358
334,82889	0,236504074094358
335,07889	0,236914074094358
335,32889	0,236944074094358
335,57889	0,236894074094358
335,82889	0,237214074094358
336,07889	0,237234074094358
336,32889	0,237774074094358
336,57889	0,238044074094358
336,82889	0,238514074094358
337,07889	0,238074074094358
337,32889	0,238734074094358
337,57889	0,238904074094358
337,82889	0,238694074094358
338,07889	0,238974074094358
338,32889	0,239084074094358
338,57889	0,239294074094358
338,82889	0,239244074094358
339,07889	0,239714074094358
339,32889	0,239914074094358
339,57889	0,239944074094358
339,82889	0,240244074094358
340,07889	0,240284074094358
340,32889	0,240874074094358
340,57889	0,241604074094358
340,82889	0,241304074094358
341,07889	0,241364074094358
341,32889	0,240974074094358
341,57889	0,241464074094358
341,82889	0,242014074094358
342,07889	0,242214074094358
342,32889	0,242854074094358
342,57889	0,242714074094358
342,82889	0,242714074094358
343,07889	0,242754074094358
343,32889	0,243984074094358
343,57889	0,243374074094358
343,82889	0,243514074094358
344,07889	0,244104074094358
344,32889	0,243874074094358
344,57889	0,244314074094358
344,82889	0,244284074094358
345,07889	0,244294074094358
345,32889	0,243994074094358
345,57889	0,244634074094358
345,82889	0,244374074094358
346,07889	0,245064074094358
346,32889	0,245544074094358
346,57889	0,245814074094358
346,82889	0,245744074094358
347,07889	0,245764074094358
347,32889	0,246144074094358
347,57889	0,245924074094358
347,82889	0,246644074094358
348,07889	0,247044074094358
348,32889	0,246884074094358
348,57889	0,246844074094358
348,82889	0,247454074094358
349,07889	0,246814074094358
349,32889	0,247344074094358
349,57889	0,247664074094358
349,82889	0,247724074094358
350,07889	0,247994074094358
350,32889	0,247994074094358
350,57889	0,247994074094358
350,82889	0,247994074094358
